!       **** Bootstrap Histogram for 500_2000 ************
!           From       To        Ctr        Freq     Cum.
         -2.504e-06 -2.490e-06 -2.497e-06     0       0
         -2.490e-06 -2.477e-06 -2.483e-06     0       0
         -2.477e-06 -2.463e-06 -2.470e-06   500     500
         -2.463e-06 -2.450e-06 -2.456e-06     0     500
         -2.450e-06 -2.436e-06 -2.443e-06     0     500
         -2.436e-06 -2.423e-06 -2.429e-06     0     500
         -2.423e-06 -2.409e-06 -2.416e-06     0     500
         -2.409e-06 -2.396e-06 -2.402e-06     0     500
         -2.396e-06 -2.382e-06 -2.389e-06     0     500
         -2.382e-06 -2.369e-06 -2.375e-06     0     500
         -2.369e-06 -2.355e-06 -2.362e-06     0     500
         -2.355e-06 -2.342e-06 -2.349e-06     0     500
         -2.342e-06 -2.328e-06 -2.335e-06     0     500
         -2.328e-06 -2.315e-06 -2.322e-06     0     500
         -2.315e-06 -2.301e-06 -2.308e-06     0     500
         -2.301e-06 -2.288e-06 -2.295e-06     0     500
         -2.288e-06 -2.274e-06 -2.281e-06     0     500
         -2.274e-06 -2.261e-06 -2.268e-06     0     500
         -2.261e-06 -2.247e-06 -2.254e-06     0     500
         -2.247e-06 -2.234e-06 -2.241e-06     0     500
         -2.234e-06 -2.220e-06 -2.227e-06     0     500
         -2.220e-06 -2.207e-06 -2.214e-06     0     500
         -2.207e-06 -2.193e-06 -2.200e-06     0     500
         -2.193e-06 -2.180e-06 -2.187e-06     0     500
         -2.180e-06 -2.167e-06 -2.173e-06     0     500
         -2.167e-06 -2.153e-06 -2.160e-06     0     500
!Created by ./stackanalysis_v4.pl in Users/CEERS_00672_oE621zR
