!       **** Bootstrap Histogram for 500_2000 ************
!           From       To        Ctr        Freq     Cum.
         -1.602e-06 -1.554e-06 -1.578e-06     0       0
         -1.554e-06 -1.505e-06 -1.529e-06     0       0
         -1.505e-06 -1.457e-06 -1.481e-06   500     500
         -1.457e-06 -1.408e-06 -1.432e-06     0     500
         -1.408e-06 -1.359e-06 -1.384e-06     0     500
         -1.359e-06 -1.311e-06 -1.335e-06     0     500
         -1.311e-06 -1.262e-06 -1.287e-06     0     500
         -1.262e-06 -1.214e-06 -1.238e-06     0     500
         -1.214e-06 -1.165e-06 -1.190e-06     0     500
         -1.165e-06 -1.117e-06 -1.141e-06     0     500
         -1.117e-06 -1.068e-06 -1.093e-06     0     500
         -1.068e-06 -1.020e-06 -1.044e-06     0     500
         -1.020e-06 -9.713e-07 -9.956e-07     0     500
         -9.713e-07 -9.228e-07 -9.470e-07     0     500
         -9.228e-07 -8.743e-07 -8.985e-07     0     500
         -8.743e-07 -8.257e-07 -8.500e-07     0     500
         -8.257e-07 -7.772e-07 -8.015e-07     0     500
         -7.772e-07 -7.287e-07 -7.530e-07     0     500
         -7.287e-07 -6.802e-07 -7.044e-07     0     500
         -6.802e-07 -6.316e-07 -6.559e-07     0     500
         -6.316e-07 -5.831e-07 -6.074e-07     0     500
         -5.831e-07 -5.346e-07 -5.589e-07     0     500
         -5.346e-07 -4.861e-07 -5.103e-07     0     500
         -4.861e-07 -4.376e-07 -4.618e-07     0     500
         -4.376e-07 -3.890e-07 -4.133e-07     0     500
         -3.890e-07 -3.405e-07 -3.648e-07     0     500
!Created by ./stackanalysis_v4.pl in Users/M23_954_Gd550zi
